"theta","tau"
0.01,0.00379649399329196
0.011,0.00438401756410656
0.012,0.00495304142557984
0.013,0.00550751763934443
0.014,0.00605027133701697
0.015,0.00658337633939254
0.016,0.00710838991887641
0.017,0.00762650470459647
0.018,0.00813864995361513
0.019,0.00864556084100343
0.02,0.00914782696396799
0.021,0.0096459269874245
0.022,0.0101402538414206
0.023,0.0106311333450648
0.024,0.0111188381751006
0.025,0.0116035984819334
0.026,0.0120856100562605
0.027,0.0125650406807196
0.028,0.0130420351209111
0.029,0.0135167190838601
0.03,0.0139892023849413
0.031,0.0144595815019244
0.032,0.0149279416503738
0.033,0.0153943584817142
0.034,0.0158588994818416
0.035,0.0163216251301179
0.036,0.016782589865187
0.037,0.0172418428943466
0.038,0.0176994288752326
0.039,0.0181553884926942
0.04,0.0186097589492356
0.041,0.019062574383792
0.042,0.0195138662307386
0.043,0.0199636635288556
0.044,0.0204119931883611
0.045,0.0208588802222494
0.046,0.0213043479476092
0.047,0.0217484181613479
0.048,0.0221911112939104
0.049,0.0226324465443355
0.05,0.0230724419991226
0.051,0.0235111147371363
0.052,0.0239484809225274
0.053,0.0243845558871882
0.054,0.0248193542040021
0.055,0.0252528897522737
0.056,0.0256851757761254
0.057,0.0261162249368105
0.058,0.0265460493596485
0.059,0.0269746606762631
0.06,0.0274020700625996
0.061,0.0278282882732626
0.062,0.0282533256725728
0.063,0.0286771922626965
0.064,0.0290998977091537
0.065,0.02952145136409
0.066,0.0299418622873286
0.067,0.0303611392657022
0.068,0.0307792908306119
0.069,0.0311963252742036
0.07,0.0316122506640539
0.071,0.0320270748567442
0.072,0.0324408055102889
0.073,0.0328534500955762
0.074,0.0332650159069203
0.075,0.0336755100717667
0.076,0.03408493955971
0.077,0.0344933111907615
0.078,0.0349006316430547
0.079,0.035306907459999
0.08,0.0357121450568627
0.081,0.0361163507269353
0.082,0.0365195306472614
0.083,0.0369216908839611
0.084,0.0373228373971788
0.085,0.0377229760457567
0.086,0.0381221125915285
0.087,0.0385202527034032
0.088,0.038917401961136
0.089,0.0393135658588957
0.09,0.0397087498085948
0.091,0.0401029591430095
0.092,0.0404961991187633
0.093,0.0408884749190541
0.094,0.0412797916562742
0.095,0.0416701543744846
0.096,0.0420595680517213
0.097,0.0424480376021776
0.098,0.0428355678782921
0.099,0.0432221636726986
0.1,0.0436078297200808
0.101,0.0439925706989222
0.102,0.0443763912331789
0.103,0.0447592958938632
0.104,0.0451412892005401
0.105,0.0455223756227543
0.106,0.0459025595813838
0.107,0.0462818454499629
0.108,0.0466602375558587
0.109,0.0470377401815067
0.11,0.0474143575654828
0.111,0.0477900939036111
0.112,0.0481649533499553
0.113,0.0485389400178331
0.114,0.0489120579807114
0.115,0.0492843112731354
0.116,0.049655703891581
0.117,0.0500262397952707
0.118,0.050395922906965
0.119,0.0507647571137353
0.12,0.0511327462676823
0.121,0.0514998941866311
0.122,0.0518662046548366
0.123,0.0522316814235833
0.124,0.0525963282118695
0.125,0.0529601487069584
0.126,0.0533231465649981
0.127,0.0536853254115606
0.128,0.0540466888421953
0.129,0.0544072404229485
0.13,0.0547669836908611
0.131,0.0551259221544722
0.132,0.0554840592943
0.133,0.0558413985632598
0.134,0.056197943387164
0.135,0.0565536971651062
0.136,0.0569086632698967
0.137,0.0572628450484762
0.138,0.0576162458222917
0.139,0.057968868887678
0.14,0.0583207175162501
0.141,0.0586717949552398
0.142,0.0590221044278447
0.143,0.0593716491335954
0.144,0.0597204322486498
0.145,0.0600684569261425
0.146,0.0604157262964922
0.147,0.060762243467698
0.148,0.0611080115256462
0.149,0.061453033534403
0.15,0.0617973125364815
0.151,0.0621408515531492
0.152,0.0624836535846542
0.153,0.0628257216105359
0.154,0.063167058589837
0.155,0.0635076674613924
0.156,0.063847551144053
0.157,0.0641867125369311
0.158,0.064525154519635
0.159,0.0648628799525017
0.16,0.0651998916768077
0.161,0.0655361925150153
0.162,0.0658717852709687
0.163,0.0662066727300958
0.164,0.0665408576596445
0.165,0.0668743428088554
0.166,0.0672071309091793
0.167,0.0675392246744613
0.168,0.0678706268011364
0.169,0.0682013399684109
0.17,0.0685313668384619
0.171,0.0688607100565877
0.172,0.069189372251417
0.173,0.0695173560350604
0.174,0.0698446640032895
0.175,0.0701712987356977
0.176,0.0704972627958744
0.177,0.0708225587315638
0.178,0.0711471890748125
0.179,0.0714711563421382
0.18,0.0717944630346787
0.181,0.072117111638339
0.182,0.0724391046239523
0.183,0.0727604444474039
0.184,0.0730811335497981
0.185,0.0734011743575831
0.186,0.0737205692826972
0.187,0.0740393207226999
0.188,0.0743574310609185
0.189,0.074674902666561
0.19,0.0749917378948739
0.191,0.0753079390872387
0.192,0.0756235085713248
0.193,0.0759384486612005
0.194,0.07625276165746
0.195,0.0765664498473475
0.196,0.076879515504868
0.197,0.0771919608909153
0.198,0.0775037882533818
0.199,0.0778149998272699
0.2,0.0781255978348128
0.201,0.0784355844855851
0.202,0.0787449619766001
0.203,0.0790537324924365
0.204,0.079361898205331
0.205,0.0796694612752891
0.206,0.079976423850189
0.207,0.0802827880658867
0.208,0.0805885560463038
0.209,0.0808937299035533
0.21,0.0811983117380084
0.211,0.081502303638425
0.212,0.0818057076820153
0.213,0.0821085259345713
0.214,0.0824107604505215
0.215,0.0827124132730566
0.216,0.0830134864342087
0.217,0.083313981954932
0.218,0.0836139018452089
0.219,0.0839132481041247
0.22,0.0842120227199645
0.221,0.0845102276702914
0.222,0.0848078649220367
0.223,0.0851049364315832
0.224,0.085401444144841
0.225,0.0856973899973426
0.226,0.0859927759143151
0.227,0.0862876038107618
0.228,0.0865818755915404
0.229,0.0868755931514453
0.23,0.0871687583752823
0.231,0.0874613731379443
0.232,0.0877534393044948
0.233,0.0880449587302254
0.234,0.0883359332607498
0.235,0.0886263647320633
0.236,0.0889162549706266
0.237,0.0892056057934205
0.238,0.0894944190080382
0.239,0.0897826964127373
0.24,0.0900704397965226
0.241,0.0903576509392012
0.242,0.0906443316114638
0.243,0.0909304835749438
0.244,0.0912161085822882
0.245,0.0915012083772178
0.246,0.0917857846945953
0.247,0.0920698392604939
0.248,0.0923533737922582
0.249,0.0926363899985607
0.25,0.0929188895794741
0.251,0.0932008742265302
0.252,0.0934823456227765
0.253,0.0937633054428453
0.254,0.0940437553530011
0.255,0.0943236970112182
0.256,0.0946031320672196
0.257,0.0948820621625495
0.258,0.0951604889306257
0.259,0.0954384139967979
0.26,0.0957158389784003
0.261,0.0959927654848114
0.262,0.0962691951175154
0.263,0.0965451294701416
0.264,0.096820570128533
0.265,0.097095518670792
0.266,0.0973699766673382
0.267,0.0976439456809626
0.268,0.0979174272668715
0.269,0.0981904229727473
0.27,0.0984629343387962
0.271,0.0987349628977965
0.272,0.099006510175156
0.273,0.0992775776889547
0.274,0.0995481669499987
0.275,0.0998182794618661
0.276,0.100087916720963
0.277,0.100357080216556
0.278,0.100625771430842
0.279,0.10089399183897
0.28,0.101161742909112
0.281,0.101429026102493
0.282,0.101695842873445
0.283,0.101962194669446
0.284,0.102228082931176
0.285,0.102493509092548
0.286,0.102758474580766
0.287,0.103022980816355
0.288,0.10328702921322
0.289,0.103550621178672
0.29,0.103813758113487
0.291,0.10407644141194
0.292,0.104338672461845
0.293,0.104600452644602
0.294,0.104861783335237
0.295,0.105122665902444
0.296,0.105383101708619
0.297,0.105643092109909
0.298,0.105902638456248
0.299,0.106161742091396
0.3,0.106420404352976
0.301,0.106678626572521
0.302,0.106936410075505
0.303,0.107193756181385
0.304,0.107450666203633
0.305,0.107707141449785
0.306,0.107963183221469
0.307,0.108218792814441
0.308,0.108473971518629
0.309,0.108728720618164
0.31,0.10898304139142
0.311,0.109236935111047
0.312,0.109490403044001
0.313,0.109743446451593
0.314,0.109996066589512
0.315,0.110248264707865
0.316,0.110500042051207
0.317,0.110751399858581
0.318,0.111002339363549
0.319,0.111252861794222
0.32,0.1115029683733
0.321,0.111752660318101
0.322,0.112001938840588
0.323,0.112250805147418
0.324,0.112499260439956
0.325,0.112747305914315
0.326,0.11299494276139
0.327,0.113242172166887
0.328,0.11348899531135
0.329,0.113735413370203
0.33,0.11398142751376
0.331,0.114227038907285
0.332,0.114472248710995
0.333,0.114717058080104
0.334,0.114961468164851
0.335,0.115205480110525
0.336,0.115449095057503
0.337,0.115692314141266
0.338,0.11593513849244
0.339,0.116177569236822
0.34,0.116419607495398
0.341,0.116661254384389
0.342,0.11690251101526
0.343,0.117143378494765
0.344,0.11738385792496
0.345,0.117623950403243
0.346,0.117863657022367
0.347,0.118102978870481
0.348,0.118341917031149
0.349,0.118580472583377
0.35,0.118818646601639
0.351,0.119056440155906
0.352,0.119293854311668
0.353,0.119530890129966
0.354,0.119767548667407
0.355,0.1200038309762
0.356,0.120239738104177
0.357,0.120475271094812
0.358,0.120710430987258
0.359,0.120945218816359
0.36,0.121179635612686
0.361,0.121413682402551
0.362,0.121647360208036
0.363,0.121880670047017
0.364,0.122113612933189
0.365,0.122346189876084
0.366,0.122578401881098
0.367,0.122810249949514
0.368,0.123041735078528
0.369,0.123272858261266
0.37,0.123503620486807
0.371,0.123734022740213
0.372,0.123964066002542
0.373,0.124193751250874
0.374,0.124423079458338
0.375,0.124652051594125
0.376,0.124880668623513
0.377,0.125108931507893
0.378,0.125336841204784
0.379,0.125564398667858
0.38,0.125791604846958
0.381,0.126018460688125
0.382,0.126244967133611
0.383,0.126471125121905
0.384,0.126696935587752
0.385,0.12692239946217
0.386,0.127147517672478
0.387,0.12737229114231
0.388,0.127596720791634
0.389,0.127820807536777
0.39,0.12804455229044
0.391,0.128267955961719
0.392,0.128491019456127
0.393,0.128713743675609
0.394,0.12893612951856
0.395,0.129158177879854
0.396,0.12937988965085
0.397,0.129601265719419
0.398,0.129822306969959
0.399,0.130043014283413
0.4,0.130263388537291
0.401,0.130483430605689
0.402,0.130703141359296
0.403,0.130922521665426
0.404,0.131141572388029
0.405,0.131360294387709
0.406,0.131578688521742
0.407,0.131796755644092
0.408,0.132014496605434
0.409,0.132231912253162
0.41,0.132449003431415
0.411,0.132665770981092
0.412,0.132882215739861
0.413,0.133098338542186
0.414,0.13331414021934
0.415,0.13352962159942
0.416,0.133744783507363
0.417,0.133959626764969
0.418,0.134174152190905
0.419,0.134388360600735
0.42,0.134602252806924
0.421,0.134815829618863
0.422,0.13502909184288
0.423,0.135242040282254
0.424,0.135454675737237
0.425,0.135666999005063
0.426,0.135879010879967
0.427,0.1360907121532
0.428,0.136302103613043
0.429,0.136513186044822
0.43,0.136723960230926
0.431,0.136934426950815
0.432,0.137144586981045
0.433,0.137354441095272
0.434,0.137563990064274
0.435,0.137773234655964
0.436,0.137982175635402
0.437,0.13819081376481
0.438,0.138399149803591
0.439,0.138607184508332
0.44,0.138814918632833
0.441,0.139022352928109
0.442,0.139229488142409
0.443,0.139436325021228
0.444,0.139642864307323
0.445,0.139849106740724
0.446,0.14005505305875
0.447,0.140260703996018
0.448,0.140466060284463
0.449,0.140671122653346
0.45,0.140875891829268
0.451,0.141080368536187
0.452,0.141284553495424
0.453,0.141488447425682
0.454,0.141692051043056
0.455,0.141895365061048
0.456,0.142098390190577
0.457,0.142301127139991
0.458,0.142503576615086
0.459,0.142705739319108
0.46,0.142907615952776
0.461,0.143109207214286
0.462,0.143310513799329
0.463,0.1435115364011
0.464,0.14371227571031
0.465,0.1439127324152
0.466,0.14411290720155
0.467,0.144312800752695
0.468,0.144512413749533
0.469,0.144711746870538
0.47,0.144910800791772
0.471,0.145109576186897
0.472,0.145308073727184
0.473,0.145506294081527
0.474,0.145704237916455
0.475,0.14590190589614
0.476,0.146099298682409
0.477,0.14629641693476
0.478,0.146493261310364
0.479,0.146689832464085
0.48,0.146886131048487
0.481,0.147082157713845
0.482,0.147277913108152
0.483,0.147473397877139
0.484,0.147668612664276
0.485,0.147863558110791
0.486,0.148058234855671
0.487,0.148252643535685
0.488,0.14844678478538
0.489,0.148640659237104
0.49,0.148834267521008
0.491,0.149027610265061
0.492,0.149220688095056
0.493,0.149413501634627
0.494,0.149606051505251
0.495,0.14979833832626
0.496,0.149990362714858
0.497,0.15018212528612
0.498,0.150373626653011
0.499,0.150564867426391
0.5,0.150755848215023
0.501,0.150946569625589
0.502,0.151137032262695
0.503,0.15132723672888
0.504,0.151517183624629
0.505,0.151706873548378
0.506,0.151896307096528
0.507,0.15208548486345
0.508,0.152274407441501
0.509,0.152463075421021
0.51,0.152651489390355
0.511,0.152839649935856
0.512,0.153027557641893
0.513,0.153215213090865
0.514,0.153402616863204
0.515,0.153589769537388
0.516,0.153776671689948
0.517,0.153963323895478
0.518,0.154149726726641
0.519,0.154335880754183
0.52,0.154521786546936
0.521,0.154707444671829
0.522,0.154892855693898
0.523,0.155078020176292
0.524,0.155262938680282
0.525,0.15544761176527
0.526,0.155632039988799
0.527,0.155816223906558
0.528,0.15600016407239
0.529,0.156183861038307
0.53,0.156367315354487
0.531,0.156550527569292
0.532,0.156733498229273
0.533,0.156916227879174
0.534,0.157098717061945
0.535,0.15728096631875
0.536,0.15746297618897
0.537,0.157644747210217
0.538,0.157826279918335
0.539,0.158007574847416
0.54,0.158188632529801
0.541,0.158369453496088
0.542,0.158550038275144
0.543,0.158730387394111
0.544,0.158910501378411
0.545,0.159090380751754
0.546,0.15927002603615
0.547,0.15944943775191
0.548,0.159628616417659
0.549,0.159807562550338
0.55,0.159986276665216
0.551,0.160164759275895
0.552,0.160343010894318
0.553,0.160521032030774
0.554,0.160698823193909
0.555,0.160876384890729
0.556,0.16105371762661
0.557,0.161230821905306
0.558,0.161407698228949
0.559,0.161584347098067
0.56,0.16176076901158
0.561,0.161936964466814
0.562,0.162112933959506
0.563,0.16228867798381
0.564,0.162464197032302
0.565,0.162639491595992
0.566,0.162814562164326
0.567,0.162989409225194
0.568,0.163164033264938
0.569,0.163338434768357
0.57,0.163512614218712
0.571,0.163686572097737
0.572,0.163867538260846
0.573,0.164041031447711
0.574,0.164214304606435
0.575,0.164387358212045
0.576,0.164560192738072
0.577,0.164732808656563
0.578,0.164905206438086
0.579,0.165077386551733
0.58,0.165249349465129
0.581,0.165421095644436
0.582,0.165592625554363
0.583,0.165763939658168
0.584,0.165935038417664
0.585,0.16610592229323
0.586,0.16627659174381
0.587,0.166447047226926
0.588,0.166617289198677
0.589,0.16678731811375
0.59,0.166957134425423
0.591,0.167126738585573
0.592,0.167296131044681
0.593,0.167465312251834
0.594,0.167634282654739
0.595,0.167803042699721
0.596,0.167971592831732
0.597,0.168139933494354
0.598,0.168308065129811
0.599,0.168475988178967
0.6,0.168643703081335
0.601,0.168811210275085
0.602,0.168978510197044
0.603,0.169145603282706
0.604,0.169312489966233
0.605,0.169479170680468
0.606,0.16964564585693
0.607,0.169811915925829
0.608,0.169977981316066
0.609,0.170143842455238
0.61,0.170309499769647
0.611,0.170474953684302
0.612,0.170640204622924
0.613,0.170805253007955
0.614,0.170970099260558
0.615,0.171134743800626
0.616,0.171299187046786
0.617,0.171463429416404
0.618,0.171627471325587
0.619,0.171791313189197
0.62,0.171954955420844
0.621,0.1721183984329
0.622,0.172281642636501
0.623,0.17244468844155
0.624,0.172607536256726
0.625,0.172770186489484
0.626,0.172932639546067
0.627,0.1730948958315
0.628,0.173256955749607
0.629,0.173418819703007
0.63,0.173580488093121
0.631,0.17374196132018
0.632,0.173903239783226
0.633,0.174064323880116
0.634,0.174225214007532
0.635,0.17438591056098
0.636,0.174546413934795
0.637,0.174706724522151
0.638,0.174866842715062
0.639,0.175026768904382
0.64,0.175186503479819
0.641,0.17534604682993
0.642,0.175505399342135
0.643,0.175664561402713
0.644,0.17582353339681
0.645,0.175982315708446
0.646,0.176140908720513
0.647,0.176299312814787
0.648,0.176457528371925
0.649,0.176615555771475
0.65,0.176773395391878
0.651,0.17693104761047
0.652,0.177088512803493
0.653,0.177245791346091
0.654,0.177402883612319
0.655,0.177559789975149
0.656,0.177716510806468
0.657,0.177873046477089
0.658,0.178029397356748
0.659,0.178185563814116
0.66,0.178341546216796
0.661,0.178497344931333
0.662,0.178652960323212
0.663,0.178808392756868
0.664,0.178963642595686
0.665,0.179118710202007
0.666,0.179273595937131
0.667,0.179428300161321
0.668,0.179582823233809
0.669,0.179737165512795
0.67,0.179891327355457
0.671,0.180045309117951
0.672,0.180199111155416
0.673,0.180352733821976
0.674,0.180506177470749
0.675,0.180659442453844
0.676,0.18081252912237
0.677,0.180965437826439
0.678,0.181118168915166
0.679,0.181270722736678
0.68,0.181423099638113
0.681,0.181575299965628
0.682,0.1817273240644
0.683,0.181879172278629
0.684,0.182030844951544
0.685,0.182182342425407
0.686,0.182333665041513
0.687,0.182484813140197
0.688,0.182635787060837
0.689,0.182786587141854
0.69,0.182937213720723
0.691,0.183087667133969
0.692,0.183237947717175
0.693,0.183388055804985
0.694,0.183537991731102
0.695,0.183687755828303
0.696,0.18383734842843
0.697,0.183986769862403
0.698,0.184136020460216
0.699,0.184285100550947
0.7,0.184434010462756
0.701,0.184582750522891
0.702,0.184731321057693
0.703,0.184879722392594
0.704,0.185027954852127
0.705,0.185176018759925
0.706,0.185323914438723
0.707,0.185471642210367
0.708,0.185619202395811
0.709,0.185766595315127
0.71,0.185913821287499
0.711,0.186060880631237
0.712,0.186207773663771
0.713,0.18635450070166
0.714,0.186501062060591
0.715,0.186647458055388
0.716,0.186793689000009
0.717,0.186939755207551
0.718,0.187085656990257
0.719,0.187231394659511
0.72,0.187376968525852
0.721,0.187522378898965
0.722,0.187667626087695
0.723,0.187812710400042
0.724,0.18795763214317
0.725,0.188102391623405
0.726,0.18824698914624
0.727,0.188391425016341
0.728,0.188535699537546
0.729,0.188679813012867
0.73,0.188823765744498
0.731,0.188967558033814
0.732,0.189111190181376
0.733,0.189254662486932
0.734,0.189397975249421
0.735,0.189541128766977
0.736,0.189684123336928
0.737,0.189826959255805
0.738,0.189969636819339
0.739,0.190112156322466
0.74,0.190254518059333
0.741,0.190396722323293
0.742,0.19053876940692
0.743,0.190680659601995
0.744,0.190822393199528
0.745,0.190963970489743
0.746,0.191105391762093
0.747,0.191246657305259
0.748,0.19138776740715
0.749,0.191528722354909
0.75,0.191669522434914
0.751,0.191810167932784
0.752,0.191950659133375
0.753,0.19209099632079
0.754,0.192231179778376
0.755,0.192371209788731
0.756,0.192511086633704
0.757,0.192650810594398
0.758,0.192790381951173
0.759,0.192929800983649
0.76,0.193069067970707
0.761,0.193208183190494
0.762,0.193347146920422
0.763,0.193485959437177
0.764,0.193624621016713
0.765,0.19376313193426
0.766,0.193901492464327
0.767,0.194039702880702
0.768,0.194177763456455
0.769,0.19431567446394
0.77,0.194453436174802
0.771,0.19459104885997
0.772,0.194728512789672
0.773,0.194865828233425
0.774,0.195002995460046
0.775,0.195140014737651
0.776,0.19527688633366
0.777,0.195413610514792
0.778,0.19555018754708
0.779,0.19568661769586
0.78,0.195822901225783
0.781,0.195959038400813
0.782,0.196095029484229
0.783,0.196230874738632
0.784,0.196366574425941
0.785,0.196502128807399
0.786,0.196637538143574
0.787,0.196772802694363
0.788,0.196907922718993
0.789,0.197042898476024
0.79,0.197177730223348
0.791,0.197312418218197
0.792,0.197446962717141
0.793,0.197581363976092
0.794,0.197715622250306
0.795,0.197849737794383
0.796,0.197983710862273
0.797,0.198117541707276
0.798,0.198251230582044
0.799,0.198384777738584
0.8,0.198518183428262
0.801,0.1986514479018
0.802,0.198784571409282
0.803,0.198917554200156
0.804,0.199050396523237
0.805,0.199183098626705
0.806,0.19931566075811
0.807,0.199448083164377
0.808,0.199580366091802
0.809,0.199712509786058
0.81,0.199844514492196
0.811,0.199976380454648
0.812,0.200108107917228
0.813,0.200239697123134
0.814,0.200371148314952
0.815,0.200502461734653
0.816,0.200633637623604
0.817,0.200764676222559
0.818,0.200895577771671
0.819,0.201026342510486
0.82,0.201156970677951
0.821,0.201287462512415
0.822,0.201417818251625
0.823,0.201548038132736
0.824,0.201678122392309
0.825,0.201808071266313
0.826,0.201937884990127
0.827,0.202067563798545
0.828,0.202197107925772
0.829,0.202326517605431
0.83,0.202455793070564
0.831,0.20258493455363
0.832,0.202713942286513
0.833,0.202842816500521
0.834,0.202971557426385
0.835,0.203100165294267
0.836,0.203228640333756
0.837,0.203356982773874
0.838,0.203485192843075
